# external field signal in time domain:
# time[fm/c]     raw      filtered 
      0.00  3.10290E-13
      2.00 -2.44311E-06
      4.00 -4.77864E-06
      6.00 -6.90608E-06
      8.00 -8.73426E-06
     10.00 -1.01863E-05
     12.00 -1.12034E-05
     14.00 -1.17465E-05
     16.00 -1.17980E-05
     18.00 -1.13615E-05
     20.00 -1.04612E-05
     22.00 -9.14006E-06
     24.00 -7.45817E-06
     26.00 -5.48912E-06
     28.00 -3.31737E-06
     30.00 -1.03443E-06
     32.00  1.26515E-06
     34.00  3.48731E-06
     36.00  5.54237E-06
     38.00  7.34875E-06
     40.00  8.83610E-06
     42.00  9.94799E-06
     44.00  1.06440E-05
     46.00  1.09010E-05
     48.00  1.07144E-05
     50.00  1.00976E-05
     52.00  9.08162E-06
     54.00  7.71300E-06
     56.00  6.05220E-06
     58.00  4.17076E-06
     60.00  2.14823E-06
     62.00  6.87452E-08
     64.00 -1.98257E-06
     66.00 -3.92301E-06
     68.00 -5.67569E-06
     70.00 -7.17252E-06
     72.00 -8.35686E-06
     74.00 -9.18553E-06
     76.00 -9.63043E-06
     78.00 -9.67942E-06
     80.00 -9.33651E-06
     82.00 -8.62154E-06
     84.00 -7.56914E-06
     86.00 -6.22721E-06
     88.00 -4.65465E-06
     90.00 -2.91888E-06
     92.00 -1.09304E-06
     94.00  7.47143E-07
     96.00  2.52668E-06
     98.00  4.17440E-06
    100.00  5.62571E-06
    102.00  6.82507E-06
    104.00  7.72821E-06
    106.00  8.30378E-06
    108.00  8.53424E-06
    110.00  8.41618E-06
    112.00  7.96030E-06
    114.00  7.19063E-06
    116.00  6.14328E-06
    118.00  4.86494E-06
    120.00  3.41070E-06
    122.00  1.84174E-06
    124.00  2.22922E-07
    126.00 -1.37995E-06
    128.00 -2.90269E-06
    130.00 -4.28513E-06
    132.00 -5.47367E-06
    134.00 -6.42326E-06
    136.00 -7.09890E-06
    138.00 -7.47708E-06
    140.00 -7.54668E-06
    142.00 -7.30909E-06
    144.00 -6.77793E-06
    146.00 -5.97847E-06
    148.00 -4.94647E-06
    150.00 -3.72670E-06
    152.00 -2.37091E-06
    154.00 -9.35647E-07
    156.00  5.19953E-07
    158.00  1.93659E-06
    160.00  3.25722E-06
    162.00  4.42935E-06
    164.00  5.40715E-06
    166.00  6.15322E-06
    168.00  6.64006E-06
    170.00  6.85104E-06
    172.00  6.78088E-06
    174.00  6.43581E-06
    176.00  5.83325E-06
    178.00  5.00080E-06
    180.00  3.97495E-06
    182.00  2.79974E-06
    184.00  1.52473E-06
    186.00  2.02952E-07
    188.00 -1.11128E-06
    190.00 -2.36452E-06
    192.00 -3.50628E-06
    194.00 -4.49109E-06
    196.00 -5.28058E-06
    198.00 -5.84474E-06
    200.00 -6.16309E-06
    202.00 -6.22554E-06
    204.00 -6.03270E-06
    206.00 -5.59578E-06
    208.00 -4.93599E-06
    210.00 -4.08349E-06
    212.00 -3.07602E-06
    214.00 -1.95713E-06
    216.00 -7.74436E-07
    218.00  4.22573E-07
    220.00  1.58470E-06
    222.00  2.66491E-06
    224.00  3.62035E-06
    226.00  4.41403E-06
    228.00  5.01619E-06
    230.00  5.40538E-06
    232.00  5.56926E-06
    234.00  5.50492E-06
    236.00  5.21868E-06
    238.00  4.72582E-06
    240.00  4.04985E-06
    242.00  3.22138E-06
    244.00  2.27671E-06
    246.00  1.25632E-06
    248.00  2.03192E-07
    250.00 -8.38891E-07
    252.00 -1.82734E-06
    254.00 -2.72247E-06
    256.00 -3.48915E-06
    258.00 -4.09821E-06
    260.00 -4.52763E-06
    262.00 -4.76332E-06
    264.00 -4.79963E-06
    266.00 -4.63946E-06
    268.00 -4.29390E-06
    270.00 -3.78153E-06
    272.00 -3.12743E-06
    274.00 -2.36201E-06
    276.00 -1.51959E-06
    278.00 -6.36702E-07
    280.00  2.49380E-07
    282.00  1.10227E-06
    284.00  1.88797E-06
    286.00  2.57614E-06
    288.00  3.14138E-06
    290.00  3.56408E-06
    292.00  3.83102E-06
    294.00  3.93574E-06
    296.00  3.87871E-06
    298.00  3.66704E-06
    300.00  3.31396E-06
    302.00  2.83813E-06
    304.00  2.26263E-06
    306.00  1.61391E-06
    308.00  9.20586E-07
    310.00  2.12157E-07
    312.00 -4.82254E-07
    314.00 -1.13513E-06
    316.00 -1.72160E-06
    318.00 -2.22033E-06
    320.00 -2.61429E-06
    322.00 -2.89131E-06
    324.00 -3.04436E-06
    326.00 -3.07164E-06
    328.00 -2.97638E-06
    330.00 -2.76656E-06
    332.00 -2.45444E-06
    334.00 -2.05585E-06
    336.00 -1.58944E-06
    338.00 -1.07587E-06
    340.00 -5.36968E-07
    342.00  5.21252E-09
    344.00  5.29266E-07
    346.00  1.01522E-06
    348.00  1.44526E-06
    350.00  1.80435E-06
    352.00  2.08070E-06
    354.00  2.26617E-06
    356.00  2.35645E-06
    358.00  2.35110E-06
    360.00  2.25340E-06
    362.00  2.07014E-06
    364.00  1.81129E-06
    366.00  1.48946E-06
    368.00  1.11932E-06
    370.00  7.17008E-07
    372.00  2.99403E-07
    374.00 -1.16552E-07
    376.00 -5.14491E-07
    378.00 -8.79268E-07
    380.00 -1.19755E-06
    382.00 -1.45825E-06
    384.00 -1.65287E-06
    386.00 -1.77579E-06
    388.00 -1.82445E-06
    390.00 -1.79929E-06
    392.00 -1.70361E-06
    394.00 -1.54346E-06
    396.00 -1.32723E-06
    398.00 -1.06535E-06
    400.00 -7.69773E-07
    402.00 -4.53425E-07
    404.00 -1.29694E-07
    406.00  1.88148E-07
    408.00  4.87493E-07
    410.00  7.56892E-07
    412.00  9.86514E-07
    414.00  1.16855E-06
    416.00  1.29746E-06
    418.00  1.37006E-06
    420.00  1.38558E-06
    422.00  1.34570E-06
    424.00  1.25423E-06
    426.00  1.11694E-06
    428.00  9.41180E-07
    430.00  7.35539E-07
    432.00  5.09373E-07
    434.00  2.72419E-07
    436.00  3.43704E-08
    438.00 -1.95512E-07
    440.00 -4.08679E-07
    442.00 -5.97615E-07
    444.00 -7.56095E-07
    446.00 -8.79315E-07
    448.00 -9.64031E-07
    450.00 -1.00865E-06
    452.00 -1.01317E-06
    454.00 -9.79170E-07
    456.00 -9.09703E-07
    458.00 -8.09067E-07
    460.00 -6.82611E-07
    462.00 -5.36457E-07
    464.00 -3.77180E-07
    466.00 -2.11552E-07
    468.00 -4.62559E-08
    470.00  1.12388E-07
    472.00  2.58665E-07
    474.00  3.87678E-07
    476.00  4.95492E-07
    478.00  5.79317E-07
    480.00  6.37601E-07
    482.00  6.69951E-07
    484.00  6.77137E-07
    486.00  6.61030E-07
    488.00  6.24319E-07
    490.00  5.70334E-07
    492.00  5.02769E-07
    494.00  4.25337E-07
    496.00  3.41622E-07
    498.00  2.54817E-07
    500.00  1.67582E-07
    502.00  8.20505E-08
    504.00 -3.13845E-10
    506.00 -7.86609E-08
    508.00 -1.52578E-07
    510.00 -2.21915E-07
    512.00 -2.86656E-07
    514.00 -3.46834E-07
    516.00 -4.02292E-07
    518.00 -4.52545E-07
    520.00 -4.96740E-07
    522.00 -5.33607E-07
    524.00 -5.61493E-07
    526.00 -5.78481E-07
    528.00 -5.82534E-07
    530.00 -5.71628E-07
    532.00 -5.43901E-07
    534.00 -4.97872E-07
    536.00 -4.32639E-07
    538.00 -3.47953E-07
    540.00 -2.44388E-07
    542.00 -1.23466E-07
    544.00  1.23070E-08
    546.00  1.59302E-07
    548.00  3.12859E-07
    550.00  4.67457E-07
    552.00  6.16728E-07
    554.00  7.53720E-07
    556.00  8.71333E-07
    558.00  9.62672E-07
    560.00  1.02142E-06
    562.00  1.04220E-06
    564.00  1.02096E-06
    566.00  9.55407E-07
    568.00  8.45283E-07
    570.00  6.92496E-07
    572.00  5.01052E-07
    574.00  2.77166E-07
    576.00  2.90436E-08
    578.00 -2.33589E-07
    580.00 -4.99694E-07
    582.00 -7.57511E-07
    584.00 -9.95310E-07
    586.00 -1.20179E-06
    588.00 -1.36661E-06
    590.00 -1.48102E-06
    592.00 -1.53825E-06
    594.00 -1.53381E-06
    596.00 -1.46572E-06
    598.00 -1.33481E-06
    600.00 -1.14465E-06
    602.00 -9.01344E-07
    604.00 -6.13497E-07
    606.00 -2.91888E-07
    608.00  5.09997E-08
    610.00  4.01424E-07
    612.00  7.44947E-07
    614.00  1.06714E-06
    616.00  1.35415E-06
    618.00  1.59332E-06
    620.00  1.77378E-06
    622.00  1.88685E-06
    624.00  1.92654E-06
    626.00  1.88998E-06
    628.00  1.77736E-06
    630.00  1.59204E-06
    632.00  1.34044E-06
    634.00  1.03184E-06
    636.00  6.77953E-07
    638.00  2.92496E-07
    640.00 -1.09385E-07
    642.00 -5.11792E-07
    644.00 -8.98723E-07
    646.00 -1.25476E-06
    648.00 -1.56576E-06
    650.00 -1.81939E-06
    652.00 -2.00570E-06
    654.00 -2.11753E-06
    656.00 -2.15061E-06
    658.00 -2.10379E-06
    660.00 -1.97906E-06
    662.00 -1.78121E-06
    664.00 -1.51764E-06
    666.00 -1.19804E-06
    668.00 -8.33924E-07
    670.00 -4.38271E-07
    672.00 -2.49909E-08
    674.00  3.91563E-07
    676.00  7.97049E-07
    678.00  1.17748E-06
    680.00  1.51960E-06
    682.00  1.81129E-06
    684.00  2.04209E-06
    686.00  2.20341E-06
    688.00  2.28874E-06
    690.00  2.29406E-06
    692.00  2.21794E-06
    694.00  2.06164E-06
    696.00  1.82940E-06
    698.00  1.52822E-06
    700.00  1.16777E-06
    702.00  7.60187E-07
    704.00  3.19545E-07
    706.00 -1.38534E-07
    708.00 -5.97294E-07
    710.00 -1.03966E-06
    712.00 -1.44892E-06
    714.00 -1.80921E-06
    716.00 -2.10631E-06
    718.00 -2.32821E-06
    720.00 -2.46556E-06
    722.00 -2.51213E-06
    724.00 -2.46511E-06
    726.00 -2.32530E-06
    728.00 -2.09714E-06
    730.00 -1.78841E-06
    732.00 -1.41009E-06
    734.00 -9.75914E-07
    736.00 -5.01795E-07
    738.00 -5.35753E-09
    740.00  4.94775E-07
    742.00  9.79683E-07
    744.00  1.43079E-06
    746.00  1.83069E-06
    748.00  2.16373E-06
    750.00  2.41655E-06
    752.00  2.57871E-06
    754.00  2.64300E-06
    756.00  2.60596E-06
    758.00  2.46808E-06
    760.00  2.23365E-06
    762.00  1.91081E-06
    764.00  1.51138E-06
    766.00  1.05021E-06
    768.00  5.44863E-07
    770.00  1.49578E-08
    772.00 -5.18728E-07
    774.00 -1.03503E-06
    776.00 -1.51317E-06
    778.00 -1.93370E-06
    780.00 -2.27922E-06
    782.00 -2.53523E-06
    784.00 -2.69083E-06
    786.00 -2.73900E-06
    788.00 -2.67710E-06
    790.00 -2.50716E-06
    792.00 -2.23544E-06
    794.00 -1.87237E-06
    796.00 -1.43241E-06
    798.00 -9.33099E-07
    800.00 -3.94547E-07
    802.00  1.61301E-07
    804.00  7.11736E-07
    806.00  1.23417E-06
    808.00  1.70701E-06
    810.00  2.11068E-06
    812.00  2.42836E-06
    814.00  2.64678E-06
    816.00  2.75689E-06
    818.00  2.75411E-06
    820.00  2.63858E-06
    822.00  2.41511E-06
    824.00  2.09300E-06
    826.00  1.68563E-06
    828.00  1.20986E-06
    830.00  6.85310E-07
    832.00  1.33562E-07
    834.00 -4.22820E-07
    836.00 -9.61131E-07
    838.00 -1.45946E-06
    840.00 -1.89766E-06
    842.00 -2.25807E-06
    844.00 -2.52625E-06
    846.00 -2.69168E-06
    848.00 -2.74803E-06
    850.00 -2.69342E-06
    852.00 -2.53054E-06
    854.00 -2.26641E-06
    856.00 -1.91211E-06
    858.00 -1.48229E-06
    860.00 -9.94527E-07
    862.00 -4.68562E-07
    864.00  7.44804E-08
    866.00  6.13004E-07
    868.00  1.12572E-06
    870.00  1.59238E-06
    872.00  1.99475E-06
    874.00  2.31723E-06
    876.00  2.54740E-06
    878.00  2.67650E-06
    880.00  2.69980E-06
    882.00  2.61674E-06
    884.00  2.43094E-06
    886.00  2.15013E-06
    888.00  1.78578E-06
    890.00  1.35269E-06
    892.00  8.68365E-07
    894.00  3.52299E-07
    896.00 -1.74726E-07
    898.00 -6.91538E-07
    900.00 -1.17750E-06
    902.00 -1.61330E-06
    904.00 -1.98176E-06
    906.00 -2.26861E-06
    908.00 -2.46301E-06
    910.00 -2.55798E-06
    912.00 -2.55074E-06
    914.00 -2.44267E-06
    916.00 -2.23927E-06
    918.00 -1.94994E-06
    920.00 -1.58733E-06
    922.00 -1.16693E-06
    924.00 -7.06333E-07
    926.00 -2.24462E-07
    928.00  2.59179E-07
    930.00  7.25312E-07
    932.00  1.15569E-06
    934.00  1.53379E-06
    936.00  1.84548E-06
    938.00  2.07951E-06
    940.00  2.22790E-06
    942.00  2.28623E-06
    944.00  2.25378E-06
    946.00  2.13348E-06
    948.00  1.93178E-06
    950.00  1.65827E-06
    952.00  1.32530E-06
    954.00  9.47489E-07
    956.00  5.41020E-07
    958.00  1.23023E-07
    960.00 -2.89154E-07
    962.00 -6.78783E-07
    964.00 -1.03038E-06
    966.00 -1.33036E-06
    968.00 -1.56761E-06
    970.00 -1.73397E-06
    972.00 -1.82449E-06
    974.00 -1.83769E-06
    976.00 -1.77541E-06
    978.00 -1.64273E-06
    980.00 -1.44768E-06
    982.00 -1.20071E-06
    984.00 -9.14167E-07
    986.00 -6.01644E-07
    988.00 -2.77338E-07
    990.00  4.46429E-08
    992.00  3.50882E-07
    994.00  6.29231E-07
    996.00  8.69286E-07
    998.00  1.06271E-06
   1000.00  1.20349E-06
   1002.00  1.28811E-06
   1004.00  1.31559E-06
   1006.00  1.28742E-06
   1008.00  1.20733E-06
   1010.00  1.08111E-06
   1012.00  9.16312E-07
   1014.00  7.21790E-07
   1016.00  5.07309E-07
   1018.00  2.83087E-07
   1020.00  5.93329E-08
   1022.00 -1.54224E-07
   1024.00 -3.48777E-07
   1026.00 -5.16749E-07
   1028.00 -6.52084E-07
   1030.00 -7.50481E-07
   1032.00 -8.09500E-07
   1034.00 -8.28609E-07
   1036.00 -8.09150E-07
   1038.00 -7.54186E-07
   1040.00 -6.68257E-07
   1042.00 -5.57168E-07
   1044.00 -4.27656E-07
   1046.00 -2.86987E-07
   1048.00 -1.42615E-07
   1050.00 -1.80204E-09
   1052.00  1.28744E-07
   1054.00  2.43141E-07
   1056.00  3.36654E-07
   1058.00  4.05864E-07
   1060.00  4.48747E-07
   1062.00  4.64782E-07
   1064.00  4.54924E-07
   1066.00  4.21469E-07
   1068.00  3.67905E-07
   1070.00  2.98641E-07
   1072.00  2.18705E-07
   1074.00  1.33453E-07
   1076.00  4.82536E-08
   1078.00 -3.17848E-08
   1080.00 -1.02153E-07
   1082.00 -1.59204E-07
   1084.00 -2.00184E-07
   1086.00 -2.23401E-07
   1088.00 -2.28343E-07
   1090.00 -2.15549E-07
   1092.00 -1.86647E-07
   1094.00 -1.44227E-07
   1096.00 -9.15984E-08
   1098.00 -3.27655E-08
   1100.00  2.78912E-08
   1102.00  8.59512E-08
   1104.00  1.37033E-07
   1106.00  1.77155E-07
   1108.00  2.03089E-07
   1110.00  2.12450E-07
   1112.00  2.03898E-07
   1114.00  1.77296E-07
   1116.00  1.33720E-07
   1118.00  7.54563E-08
   1120.00  5.80953E-09
   1122.00 -7.10703E-08
   1124.00 -1.50334E-07
   1126.00 -2.26745E-07
   1128.00 -2.95054E-07
   1130.00 -3.50301E-07
   1132.00 -3.88057E-07
   1134.00 -4.04729E-07
   1136.00 -3.97821E-07
   1138.00 -3.66076E-07
   1140.00 -3.09609E-07
   1142.00 -2.29973E-07
   1144.00 -1.30108E-07
   1146.00 -1.42196E-08
   1148.00  1.12363E-07
   1150.00  2.43380E-07
   1152.00  3.72000E-07
   1154.00  4.91140E-07
   1156.00  5.93810E-07
   1158.00  6.73498E-07
   1160.00  7.24590E-07
   1162.00  7.42726E-07
   1164.00  7.25017E-07
   1166.00  6.70317E-07
   1168.00  5.79335E-07
   1170.00  4.54643E-07
   1172.00  3.00640E-07
   1174.00  1.23357E-07
   1176.00 -6.98633E-08
   1178.00 -2.70670E-07
   1180.00 -4.70007E-07
   1182.00 -6.58579E-07
   1184.00 -8.27279E-07
   1186.00 -9.67584E-07
   1188.00 -1.07195E-06
   1190.00 -1.13409E-06
   1192.00 -1.14932E-06
   1194.00 -1.11481E-06
   1196.00 -1.02971E-06
   1198.00 -8.95361E-07
   1200.00 -7.15256E-07
   1202.00 -4.95061E-07
   1204.00 -2.42509E-07
   1206.00  3.30013E-08
   1208.00  3.20590E-07
   1210.00  6.08210E-07
   1212.00  8.83314E-07
   1214.00  1.13328E-06
   1216.00  1.34588E-06
   1218.00  1.51010E-06
   1220.00  1.61652E-06
   1222.00  1.65786E-06
   1224.00  1.62950E-06
   1226.00  1.52969E-06
   1228.00  1.35990E-06
   1230.00  1.12481E-06
   1232.00  8.32150E-07
   1234.00  4.92585E-07
   1236.00  1.19261E-07
   1238.00 -2.72760E-07
   1240.00 -6.67056E-07
   1242.00 -1.04648E-06
   1244.00 -1.39409E-06
   1246.00 -1.69383E-06
   1248.00 -1.93126E-06
   1250.00 -2.09428E-06
   1252.00 -2.17365E-06
   1254.00 -2.16351E-06
   1256.00 -2.06170E-06
   1258.00 -1.86986E-06
   1260.00 -1.59363E-06
   1262.00 -1.24247E-06
   1264.00 -8.29286E-07
   1266.00 -3.69998E-07
   1268.00  1.16965E-07
   1270.00  6.11362E-07
   1272.00  1.09211E-06
   1274.00  1.53819E-06
   1276.00  1.92960E-06
   1278.00  2.24825E-06
   1280.00  2.47888E-06
   1282.00  2.60979E-06
   1284.00  2.63341E-06
   1286.00  2.54671E-06
   1288.00  2.35143E-06
   1290.00  2.05392E-06
   1292.00  1.66501E-06
   1294.00  1.19962E-06
   1296.00  6.76014E-07
   1298.00  1.15246E-07
   1300.00 -4.59715E-07
   1302.00 -1.02494E-06
   1304.00 -1.55650E-06
   1306.00 -2.03142E-06
   1308.00 -2.42870E-06
   1310.00 -2.73029E-06
   1312.00 -2.92189E-06
   1314.00 -2.99368E-06
   1316.00 -2.94077E-06
   1318.00 -2.76370E-06
   1320.00 -2.46840E-06
   1322.00 -2.06596E-06
   1324.00 -1.57230E-06
   1326.00 -1.00742E-06
   1328.00 -3.94648E-07
   1330.00  2.40379E-07
   1332.00  8.70874E-07
   1334.00  1.47006E-06
   1336.00  2.01226E-06
   1338.00  2.47412E-06
   1340.00  2.83555E-06
   1342.00  3.08059E-06
   1344.00  3.19819E-06
   1346.00  3.18271E-06
   1348.00  3.03407E-06
   1350.00  2.75788E-06
   1352.00  2.36518E-06
   1354.00  1.87197E-06
   1356.00  1.29854E-06
   1358.00  6.68621E-07
   1360.00  8.43512E-09
   1362.00 -6.54413E-07
   1364.00 -1.29213E-06
   1366.00 -1.87794E-06
   1368.00 -2.38716E-06
   1370.00 -2.79817E-06
   1372.00 -3.09344E-06
   1374.00 -3.26030E-06
   1376.00 -3.29146E-06
   1378.00 -3.18536E-06
   1380.00 -2.94619E-06
   1382.00 -2.58379E-06
   1384.00 -2.11320E-06
   1386.00 -1.55407E-06
   1388.00 -9.29830E-07
   1390.00 -2.66665E-07
   1392.00  4.07601E-07
   1394.00  1.06461E-06
   1396.00  1.67671E-06
   1398.00  2.21808E-06
   1400.00  2.66589E-06
   1402.00  3.00126E-06
   1404.00  3.21003E-06
   1406.00  3.28344E-06
   1408.00  3.21856E-06
   1410.00  3.01841E-06
   1412.00  2.69183E-06
   1414.00  2.25306E-06
   1416.00  1.72118E-06
   1418.00  1.11928E-06
   1420.00  4.73327E-07
   1422.00 -1.88979E-07
   1424.00 -8.39402E-07
   1426.00 -1.45041E-06
   1428.00 -1.99638E-06
   1430.00 -2.45467E-06
   1432.00 -2.80654E-06
   1434.00 -3.03797E-06
   1436.00 -3.14021E-06
   1438.00 -3.11005E-06
   1440.00 -2.94987E-06
   1442.00 -2.66757E-06
   1444.00 -2.27615E-06
   1446.00 -1.79300E-06
   1448.00 -1.23923E-06
   1450.00 -6.38663E-07
   1452.00 -1.68364E-08
   1454.00  6.00138E-07
   1456.00  1.18667E-06
   1458.00  1.71870E-06
   1460.00  2.17465E-06
   1462.00  2.53631E-06
   1464.00  2.78954E-06
   1466.00  2.92476E-06
   1468.00  2.93731E-06
   1470.00  2.82758E-06
   1472.00  2.60091E-06
   1474.00  2.26744E-06
   1476.00  1.84166E-06
   1478.00  1.34182E-06
   1480.00  7.89153E-07
   1482.00  2.07008E-07
   1484.00 -3.80120E-07
   1486.00 -9.47595E-07
   1488.00 -1.47167E-06
   1490.00 -1.93053E-06
   1492.00 -2.30517E-06
   1494.00 -2.58027E-06
   1496.00 -2.74475E-06
   1498.00 -2.79228E-06
   1500.00 -2.72152E-06
   1502.00 -2.53616E-06
   1504.00 -2.24471E-06
   1506.00 -1.86013E-06
   1508.00 -1.39932E-06
   1510.00 -8.82274E-07
   1512.00 -3.31256E-07
   1514.00  2.30188E-07
   1516.00  7.78241E-07
   1518.00  1.28979E-06
   1520.00  1.74345E-06
   1522.00  2.12050E-06
   1524.00  2.40563E-06
   1526.00  2.58757E-06
   1528.00  2.65952E-06
   1530.00  2.61932E-06
   1532.00  2.46960E-06
   1534.00  2.21757E-06
   1536.00  1.87465E-06
   1538.00  1.45597E-06
   1540.00  9.79616E-07
   1542.00  4.65928E-07
   1544.00 -6.34363E-08
   1546.00 -5.86434E-07
   1548.00 -1.08155E-06
   1550.00 -1.52872E-06
   1552.00 -1.91009E-06
   1554.00 -2.21076E-06
   1556.00 -2.41934E-06
   1558.00 -2.52829E-06
   1560.00 -2.53416E-06
   1562.00 -2.43759E-06
   1564.00 -2.24331E-06
   1566.00 -1.95983E-06
   1568.00 -1.59905E-06
   1570.00 -1.17572E-06
   1572.00 -7.06927E-07
   1574.00 -2.11430E-07
   1576.00  2.91045E-07
   1578.00  7.80572E-07
   1580.00  1.23777E-06
   1582.00  1.64457E-06
   1584.00  1.98492E-06
   1586.00  2.24539E-06
   1588.00  2.41571E-06
   1590.00  2.48928E-06
   1592.00  2.46335E-06
   1594.00  2.33923E-06
   1596.00  2.12218E-06
   1598.00  1.82120E-06
   1600.00  1.44871E-06
   1602.00  1.02000E-06
   1604.00  5.52512E-07
   1606.00  6.52274E-08
   1608.00 -4.22187E-07
   1610.00 -8.90214E-07
   1612.00 -1.32026E-06
   1614.00 -1.69543E-06
   1616.00 -2.00121E-06
   1618.00 -2.22595E-06
   1620.00 -2.36129E-06
   1622.00 -2.40251E-06
   1624.00 -2.34863E-06
   1626.00 -2.20242E-06
   1628.00 -1.97023E-06
   1630.00 -1.66174E-06
   1632.00 -1.28960E-06
   1634.00 -8.68911E-07
   1636.00 -4.16682E-07
   1638.00  4.88962E-08
   1640.00  5.09154E-07
   1642.00  9.45706E-07
   1644.00  1.34120E-06
   1646.00  1.68001E-06
   1648.00  1.94892E-06
   1650.00  2.13766E-06
   1652.00  2.23924E-06
   1654.00  2.25029E-06
   1656.00  2.17112E-06
   1658.00  2.00570E-06
