#     Time     Q(n)          Q(p)         Q(n+p)        x²(n)         y²(n)         z²(n)         x²(p)         y²(p)         z²(p)
       0.00  0.603047E-09  0.625366E-09  0.122841E-08   2.38770       2.38770       2.38770       2.43077       2.43077       2.43077    
       2.00  0.239548E-02  0.243818E-02  0.483366E-02   2.38802       2.38802       2.38707       2.43109       2.43109       2.43012    
       4.00  0.468467E-02  0.477353E-02  0.945820E-02   2.38832       2.38832       2.38646       2.43140       2.43140       2.42951    
       6.00  0.676863E-02  0.690971E-02  0.136783E-01   2.38859       2.38859       2.38591       2.43168       2.43168       2.42894    
       8.00  0.855733E-02  0.875801E-02  0.173153E-01   2.38883       2.38883       2.38544       2.43193       2.43193       2.42846    
      10.00  0.997499E-02  0.102423E-01  0.202173E-01   2.38902       2.38902       2.38506       2.43212       2.43212       2.42806    
      12.00  0.109637E-01  0.113027E-01  0.222665E-01   2.38915       2.38915       2.38480       2.43226       2.43226       2.42778    
      14.00  0.114849E-01  0.118974E-01  0.233823E-01   2.38922       2.38922       2.38467       2.43234       2.43234       2.42763    
      16.00  0.115213E-01  0.120050E-01  0.235263E-01   2.38922       2.38922       2.38466       2.43236       2.43236       2.42760    
      18.00  0.110773E-01  0.116248E-01  0.227021E-01   2.38917       2.38917       2.38477       2.43231       2.43231       2.42770    
      20.00  0.101772E-01  0.107763E-01  0.209535E-01   2.38905       2.38905       2.38501       2.43220       2.43220       2.42792    
      22.00  0.886485E-02  0.949845E-02  0.183633E-01   2.38887       2.38887       2.38536       2.43203       2.43203       2.42826    
      24.00  0.720039E-02  0.784763E-02  0.150480E-01   2.38865       2.38865       2.38580       2.43181       2.43181       2.42870    
      26.00  0.525758E-02  0.589457E-02  0.111521E-01   2.38840       2.38840       2.38631       2.43155       2.43155       2.42921    
      28.00  0.312066E-02  0.372181E-02  0.684247E-02   2.38811       2.38811       2.38688       2.43126       2.43126       2.42979    
      30.00  0.880385E-03  0.141992E-02  0.230030E-02   2.38782       2.38782       2.38747       2.43096       2.43096       2.43040    
      32.00  0.273976E-02  0.183290E-02  0.457266E-02   2.38752       2.38752       2.38806       2.43065       2.43065       2.43101    
      34.00  0.707542E-02  0.638427E-02  0.134597E-01   2.38723       2.38723       2.38864       2.43035       2.43035       2.43162    
      36.00  0.110710E-01  0.106309E-01  0.217019E-01   2.38697       2.38697       2.38916       2.43007       2.43007       2.43218    
      38.00  0.145682E-01  0.144041E-01  0.289723E-01   2.38674       2.38674       2.38963       2.42982       2.42982       2.43267    
      40.00  0.174312E-01  0.175563E-01  0.349875E-01   2.38655       2.38655       2.39000       2.42961       2.42961       2.43309    
      42.00  0.195525E-01  0.199669E-01  0.395194E-01   2.38641       2.38641       2.39028       2.42945       2.42945       2.43341    
      44.00  0.208556E-01  0.215470E-01  0.424025E-01   2.38632       2.38632       2.39046       2.42935       2.42935       2.43362    
      46.00  0.212985E-01  0.222421E-01  0.435406E-01   2.38629       2.38629       2.39051       2.42930       2.42930       2.43371    
      48.00  0.208752E-01  0.220351E-01  0.429103E-01   2.38632       2.38632       2.39046       2.42932       2.42932       2.43368    
      50.00  0.196150E-01  0.209459E-01  0.405609E-01   2.38641       2.38641       2.39029       2.42939       2.42939       2.43354    
      52.00  0.175805E-01  0.190300E-01  0.366105E-01   2.38654       2.38654       2.39002       2.42951       2.42951       2.43329    
      54.00  0.148647E-01  0.163759E-01  0.312406E-01   2.38672       2.38672       2.38967       2.42969       2.42969       2.43293    
      56.00  0.115869E-01  0.131012E-01  0.246881E-01   2.38694       2.38694       2.38923       2.42991       2.42991       2.43250    
      58.00  0.788724E-02  0.934740E-02  0.172346E-01   2.38718       2.38718       2.38874       2.43015       2.43015       2.43201    
      60.00  0.392120E-02  0.527382E-02  0.919502E-02   2.38744       2.38744       2.38822       2.43042       2.43042       2.43147    
      62.00  0.736249E-04  0.105038E-02  0.903130E-03   2.38771       2.38771       2.38768       2.43070       2.43070       2.43091    
      64.00  0.207610E-02  0.157480E-02  0.365090E-02   2.38798       2.38798       2.38715       2.43098       2.43098       2.43036    
      66.00  0.396628E-02  0.357828E-02  0.754456E-02   2.38823       2.38823       2.38665       2.43125       2.43125       2.42983    
      68.00  0.566918E-02  0.540588E-02  0.110751E-01   2.38845       2.38845       2.38620       2.43149       2.43149       2.42934    
      70.00  0.711832E-02  0.698670E-02  0.141050E-01   2.38864       2.38864       2.38582       2.43170       2.43170       2.42893    
      72.00  0.825833E-02  0.826111E-02  0.165194E-01   2.38879       2.38879       2.38552       2.43186       2.43186       2.42859    
      74.00  0.904715E-02  0.918283E-02  0.182300E-01   2.38890       2.38890       2.38531       2.43199       2.43199       2.42835    
      76.00  0.945770E-02  0.972046E-02  0.191782E-01   2.38895       2.38895       2.38520       2.43206       2.43206       2.42820    
      78.00  0.947893E-02  0.985842E-02  0.193373E-01   2.38895       2.38895       2.38520       2.43208       2.43208       2.42817    
      80.00  0.911614E-02  0.959716E-02  0.187133E-01   2.38891       2.38891       2.38529       2.43204       2.43204       2.42824    
      82.00  0.839045E-02  0.895297E-02  0.173434E-01   2.38881       2.38881       2.38549       2.43196       2.43196       2.42841    
      84.00  0.733764E-02  0.795713E-02  0.152948E-01   2.38867       2.38867       2.38576       2.43182       2.43182       2.42867    
      86.00  0.600627E-02  0.665475E-02  0.126610E-01   2.38850       2.38850       2.38612       2.43165       2.43165       2.42902    
      88.00  0.445516E-02  0.510278E-02  0.955794E-02   2.38829       2.38829       2.38653       2.43145       2.43145       2.42943    
      90.00  0.275078E-02  0.336773E-02  0.611850E-02   2.38807       2.38807       2.38698       2.43122       2.43122       2.42988    
      92.00  0.964507E-03  0.152297E-02  0.248747E-02   2.38783       2.38783       2.38745       2.43098       2.43098       2.43037    
      94.00  0.166094E-02  0.708714E-03  0.236965E-02   2.38759       2.38759       2.38792       2.43073       2.43073       2.43087    
      96.00  0.512432E-02  0.437353E-02  0.949785E-02   2.38737       2.38737       2.38838       2.43049       2.43049       2.43135    
      98.00  0.832503E-02  0.779971E-02  0.161247E-01   2.38715       2.38715       2.38880       2.43026       2.43026       2.43181    
     100.00  0.111396E-01  0.108507E-01  0.219903E-01   2.38697       2.38697       2.38918       2.43006       2.43006       2.43221    
     102.00  0.134617E-01  0.134078E-01  0.268694E-01   2.38681       2.38681       2.38948       2.42989       2.42989       2.43255    
     104.00  0.152059E-01  0.153751E-01  0.305810E-01   2.38670       2.38670       2.38971       2.42976       2.42976       2.43281    
     106.00  0.163113E-01  0.166834E-01  0.329947E-01   2.38663       2.38663       2.38986       2.42967       2.42967       2.43298    
     108.00  0.167433E-01  0.172918E-01  0.340351E-01   2.38660       2.38660       2.38992       2.42963       2.42963       2.43306    
     110.00  0.164941E-01  0.171888E-01  0.336830E-01   2.38661       2.38661       2.38988       2.42964       2.42964       2.43305    
     112.00  0.155838E-01  0.163920E-01  0.319759E-01   2.38667       2.38667       2.38976       2.42969       2.42969       2.43294    
     114.00  0.140586E-01  0.149464E-01  0.290049E-01   2.38678       2.38678       2.38956       2.42979       2.42979       2.43275    
     116.00  0.119888E-01  0.129215E-01  0.249103E-01   2.38691       2.38691       2.38929       2.42992       2.42992       2.43248    
     118.00  0.946646E-02  0.104087E-01  0.198752E-01   2.38708       2.38708       2.38896       2.43009       2.43009       2.43215    
     120.00  0.660078E-02  0.751666E-02  0.141174E-01   2.38727       2.38727       2.38858       2.43028       2.43028       2.43177    
     122.00  0.351336E-02  0.436657E-02  0.787993E-02   2.38747       2.38747       2.38817       2.43049       2.43049       2.43135    
     124.00  0.333166E-03  0.108805E-02  0.142121E-02   2.38768       2.38768       2.38775       2.43070       2.43070       2.43092    
     126.00  0.140461E-02  0.109312E-02  0.249773E-02   2.38789       2.38789       2.38733       2.43092       2.43092       2.43049    
     128.00  0.289343E-02  0.266283E-02  0.555626E-02   2.38809       2.38809       2.38694       2.43113       2.43113       2.43007    
     130.00  0.424074E-02  0.410314E-02  0.834387E-02   2.38827       2.38827       2.38658       2.43132       2.43132       2.42969    
     132.00  0.539432E-02  0.535787E-02  0.107522E-01   2.38842       2.38842       2.38628       2.43149       2.43149       2.42936    
     134.00  0.631068E-02  0.637893E-02  0.126896E-01   2.38854       2.38854       2.38604       2.43162       2.43162       2.42909    
     136.00  0.695649E-02  0.712788E-02  0.140844E-01   2.38862       2.38862       2.38587       2.43172       2.43172       2.42889    
     138.00  0.730990E-02  0.757758E-02  0.148875E-01   2.38867       2.38867       2.38577       2.43178       2.43178       2.42878    
     140.00  0.736126E-02  0.771341E-02  0.150747E-01   2.38868       2.38868       2.38576       2.43180       2.43180       2.42874    
     142.00  0.711291E-02  0.753363E-02  0.146465E-01   2.38865       2.38865       2.38583       2.43177       2.43177       2.42879    
     144.00  0.657904E-02  0.704926E-02  0.136283E-01   2.38857       2.38857       2.38597       2.43171       2.43171       2.42892    
     146.00  0.578506E-02  0.628356E-02  0.120686E-01   2.38847       2.38847       2.38618       2.43161       2.43161       2.42912    
     148.00  0.476651E-02  0.527084E-02  0.100373E-01   2.38834       2.38834       2.38645       2.43148       2.43148       2.42939    
     150.00  0.356775E-02  0.405492E-02  0.762267E-02   2.38818       2.38818       2.38676       2.43132       2.43132       2.42971    
     152.00  0.223992E-02  0.268729E-02  0.492721E-02   2.38800       2.38800       2.38711       2.43113       2.43113       2.43007    
     154.00  0.838751E-03  0.122477E-02  0.206352E-02   2.38782       2.38782       2.38748       2.43094       2.43094       2.43046    
     156.00  0.115522E-02  0.545299E-03  0.170052E-02   2.38763       2.38763       2.38786       2.43074       2.43074       2.43085    
     158.00  0.390215E-02  0.348813E-02  0.739028E-02   2.38745       2.38745       2.38822       2.43055       2.43055       2.43124    
     160.00  0.645222E-02  0.626038E-02  0.127126E-01   2.38728       2.38728       2.38856       2.43037       2.43037       2.43161    
     162.00  0.870403E-02  0.875124E-02  0.174553E-01   2.38713       2.38713       2.38886       2.43020       2.43020       2.43194    
     164.00  0.105701E-01  0.108620E-01  0.214321E-01   2.38701       2.38701       2.38910       2.43006       2.43006       2.43222    
     166.00  0.119806E-01  0.125099E-01  0.244905E-01   2.38692       2.38692       2.38929       2.42995       2.42995       2.43243    
     168.00  0.128849E-01  0.136318E-01  0.265167E-01   2.38686       2.38686       2.38941       2.42988       2.42988       2.43258    
     170.00  0.132536E-01  0.141868E-01  0.274404E-01   2.38683       2.38683       2.38946       2.42984       2.42984       2.43265    
     172.00  0.130786E-01  0.141582E-01  0.272368E-01   2.38684       2.38684       2.38943       2.42985       2.42985       2.43265    
     174.00  0.123732E-01  0.135537E-01  0.259270E-01   2.38689       2.38689       2.38934       2.42989       2.42989       2.43257    
     176.00  0.111718E-01  0.124057E-01  0.235775E-01   2.38697       2.38697       2.38918       2.42996       2.42996       2.43242    
     178.00  0.952799E-02  0.107678E-01  0.202958E-01   2.38708       2.38708       2.38897       2.43007       2.43007       2.43220    
     180.00  0.751329E-02  0.871272E-02  0.162260E-01   2.38721       2.38721       2.38870       2.43021       2.43021       2.43193    
     182.00  0.521435E-02  0.632860E-02  0.115430E-01   2.38736       2.38736       2.38840       2.43036       2.43036       2.43162    
     184.00  0.272896E-02  0.371552E-02  0.644449E-02   2.38753       2.38753       2.38807       2.43054       2.43054       2.43127    
     186.00  0.161949E-03  0.980950E-03  0.114290E-02   2.38770       2.38770       2.38773       2.43072       2.43072       2.43091    
     188.00  0.118962E-02  0.882085E-03  0.207171E-02   2.38787       2.38787       2.38739       2.43090       2.43090       2.43055    
     190.00  0.239473E-02  0.220485E-02  0.459958E-02   2.38802       2.38802       2.38708       2.43107       2.43107       2.43020    
     192.00  0.348511E-02  0.342505E-02  0.691016E-02   2.38817       2.38817       2.38679       2.43123       2.43123       2.42988    
     194.00  0.441744E-02  0.449385E-02  0.891129E-02   2.38829       2.38829       2.38654       2.43138       2.43138       2.42960    
     196.00  0.515638E-02  0.536856E-02  0.105249E-01   2.38839       2.38839       2.38635       2.43149       2.43149       2.42936    
     198.00  0.567558E-02  0.601416E-02  0.116897E-01   2.38846       2.38846       2.38621       2.43158       2.43158       2.42919    
     200.00  0.595843E-02  0.640482E-02  0.123632E-01   2.38850       2.38850       2.38613       2.43163       2.43163       2.42909    
     202.00  0.599827E-02  0.652559E-02  0.125239E-01   2.38850       2.38850       2.38612       2.43165       2.43165       2.42906    
     204.00  0.579773E-02  0.637344E-02  0.121712E-01   2.38847       2.38847       2.38618       2.43163       2.43163       2.42910    
     206.00  0.536831E-02  0.595783E-02  0.113261E-01   2.38842       2.38842       2.38629       2.43157       2.43157       2.42921    
     208.00  0.472938E-02  0.530042E-02  0.100298E-01   2.38833       2.38833       2.38646       2.43148       2.43148       2.42938    
     210.00  0.390720E-02  0.443394E-02  0.834115E-02   2.38823       2.38823       2.38668       2.43137       2.43137       2.42961    
     212.00  0.293417E-02  0.340050E-02  0.633468E-02   2.38810       2.38810       2.38693       2.43123       2.43123       2.42989    
     214.00  0.184809E-02  0.224879E-02  0.409689E-02   2.38795       2.38795       2.38722       2.43108       2.43108       2.43019    
     216.00  0.691251E-03  0.103146E-02  0.172271E-02   2.38780       2.38780       2.38753       2.43092       2.43092       2.43051    
     218.00  0.981808E-03  0.395464E-03  0.137727E-02   2.38764       2.38764       2.38784       2.43076       2.43076       2.43084    
     220.00  0.330205E-02  0.277414E-02  0.607619E-02   2.38749       2.38749       2.38815       2.43060       2.43060       2.43115    
     222.00  0.548326E-02  0.497783E-02  0.104611E-01   2.38735       2.38735       2.38843       2.43046       2.43046       2.43144    
     224.00  0.743451E-02  0.692322E-02  0.143577E-01   2.38722       2.38722       2.38869       2.43033       2.43033       2.43170    
     226.00  0.907260E-02  0.854212E-02  0.176147E-01   2.38711       2.38711       2.38891       2.43022       2.43022       2.43191    
     228.00  0.103264E-01  0.978278E-02  0.201091E-01   2.38703       2.38703       2.38907       2.43014       2.43014       2.43208    
     230.00  0.111405E-01  0.106108E-01  0.217513E-01   2.38697       2.38697       2.38918       2.43008       2.43008       2.43219    
     232.00  0.114790E-01  0.110089E-01  0.224879E-01   2.38695       2.38695       2.38923       2.43006       2.43006       2.43224    
     234.00  0.113267E-01  0.109768E-01  0.223035E-01   2.38696       2.38696       2.38921       2.43006       2.43006       2.43224    
     236.00  0.106906E-01  0.105296E-01  0.212202E-01   2.38700       2.38700       2.38912       2.43009       2.43009       2.43218    
     238.00  0.960074E-02  0.969568E-02  0.192964E-01   2.38708       2.38708       2.38898       2.43014       2.43014       2.43207    
     240.00  0.810888E-02  0.851532E-02  0.166242E-01   2.38717       2.38717       2.38878       2.43022       2.43022       2.43191    
     242.00  0.628589E-02  0.703894E-02  0.133248E-01   2.38730       2.38730       2.38854       2.43032       2.43032       2.43171    
     244.00  0.421778E-02  0.532523E-02  0.954301E-02   2.38743       2.38743       2.38827       2.43043       2.43043       2.43149    
     246.00  0.200075E-02  0.344003E-02  0.544079E-02   2.38758       2.38758       2.38797       2.43056       2.43056       2.43124    
     248.00  0.132128E-03  0.145513E-02  0.119087E-02   2.38773       2.38773       2.38768       2.43069       2.43069       2.43098    
     250.00  0.123849E-02  0.276646E-03  0.151514E-02   2.38787       2.38787       2.38738       2.43082       2.43082       2.43071    
     252.00  0.227178E-02  0.125345E-02  0.352523E-02   2.38801       2.38801       2.38711       2.43095       2.43095       2.43045    
     254.00  0.319048E-02  0.216395E-02  0.535443E-02   2.38813       2.38813       2.38687       2.43107       2.43107       2.43021    
     256.00  0.396018E-02  0.297094E-02  0.693112E-02   2.38823       2.38823       2.38666       2.43118       2.43118       2.43000    
     258.00  0.455460E-02  0.364094E-02  0.819554E-02   2.38831       2.38831       2.38651       2.43127       2.43127       2.42982    
     260.00  0.495558E-02  0.414638E-02  0.910196E-02   2.38837       2.38837       2.38640       2.43133       2.43133       2.42969    
     262.00  0.515285E-02  0.446747E-02  0.962033E-02   2.38839       2.38839       2.38635       2.43137       2.43137       2.42960    
     264.00  0.514359E-02  0.459385E-02  0.973744E-02   2.38839       2.38839       2.38635       2.43139       2.43139       2.42957    
     266.00  0.493189E-02  0.452517E-02  0.945707E-02   2.38836       2.38836       2.38641       2.43138       2.43138       2.42959    
     268.00  0.452835E-02  0.427118E-02  0.879953E-02   2.38831       2.38831       2.38651       2.43135       2.43135       2.42966    
     270.00  0.394959E-02  0.385073E-02  0.780032E-02   2.38823       2.38823       2.38667       2.43129       2.43129       2.42977    
     272.00  0.321796E-02  0.329019E-02  0.650815E-02   2.38814       2.38814       2.38686       2.43122       2.43122       2.42992    
     274.00  0.236133E-02  0.262161E-02  0.498293E-02   2.38802       2.38802       2.38709       2.43113       2.43113       2.43009    
     276.00  0.141254E-02  0.188028E-02  0.329281E-02   2.38790       2.38790       2.38734       2.43103       2.43103       2.43029    
     278.00  0.408747E-03  0.110218E-02  0.151093E-02   2.38776       2.38776       2.38760       2.43093       2.43093       2.43049    
     280.00  0.121917E-02  0.321988E-03  0.575196E-03   2.38763       2.38763       2.38787       2.43083       2.43083       2.43070    
     282.00  0.320014E-02  0.857726E-03  0.405787E-02   2.38750       2.38750       2.38813       2.43073       2.43073       2.43090    
     284.00  0.504053E-02  0.224660E-02  0.728713E-02   2.38738       2.38738       2.38838       2.43064       2.43064       2.43108    
